Wavelength [micron]  /   Absorption coeff. [cm^2/g]   /   Scattering coeff. [cm^2/g]   /   H-G asymmetry
       2000.0000      0.27411077   0.00010491739   0.00041512371
       1996.0417      0.27502246   0.00010572060   0.00041653496
       1992.0913      0.27594553   0.00010652946   0.00041795900
       1988.1487      0.27686793   0.00010734048   0.00041937218
       1984.2139      0.27788417   0.00010829551   0.00042106731
       1980.2869      0.27879937   0.00010911669   0.00042248072
       1976.3676      0.27972963   0.00010994509   0.00042391567
       1972.4561      0.28065959   0.00011077651   0.00042533752
       1968.5524      0.28167450   0.00011175367   0.00042703528
       1964.6563      0.28260130   0.00011259445   0.00042847040
       1960.7680      0.28352872   0.00011344248   0.00042989387
       1956.8874      0.28455730   0.00011443607   0.00043160935
       1953.0145      0.28547747   0.00011529418   0.00043303617
       1949.1492      0.28650849   0.00011630040   0.00043475260
       1945.2916      0.28744197   0.00011716782   0.00043619872
       1941.4416      0.28837894   0.00011804041   0.00043763529
       1937.5992      0.28940089   0.00011906478   0.00043936202
       1933.7644      0.29033951   0.00011994797   0.00044080942
       1929.9373      0.29137377   0.00012098553   0.00044253716
       1926.1177      0.29231193   0.00012187896   0.00044398353
       1922.3056      0.29333889   0.00012292822   0.00044571197
       1918.5011      0.29427947   0.00012383388   0.00044717228
       1914.7041      0.29531608   0.00012489549   0.00044890123
       1910.9147      0.29626224   0.00012581048   0.00045036950
       1907.1327      0.29729930   0.00012688525   0.00045211010
       1903.3583      0.29824812   0.00012781223   0.00045357655
       1899.5913      0.29928675   0.00012889852   0.00045531735
       1895.8317      0.30023195   0.00012983526   0.00045679771
       1892.0796      0.30127227   0.00013093670   0.00045854985
       1888.3349      0.30222213   0.00013188496   0.00046002805
       1884.5977      0.30327534   0.00013299807   0.00046178293
       1880.8678      0.30431943   0.00013411851   0.00046354237
       1877.1453      0.30527209   0.00013508378   0.00046502468
       1873.4302      0.30632500   0.00013621736   0.00046678831
       1869.7224      0.30727808   0.00013719379   0.00046826984
       1866.0220      0.30832281   0.00013834034   0.00047004363
       1862.3289      0.30937612   0.00013949538   0.00047181792
       1858.6431      0.31042767   0.00014065602   0.00047359137
       1854.9646      0.31138859   0.00014165663   0.00047508347
       1851.2934      0.31244539   0.00014283012   0.00047686968
       1847.6294      0.31350641   0.00014401384   0.00047865248
       1843.9727      0.31446917   0.00014503243   0.00048015829
       1840.3233      0.31552800   0.00014622760   0.00048195163
       1836.6810      0.31658716   0.00014742964   0.00048373919
       1833.0460      0.31765287   0.00014863952   0.00048552715
       1829.4181      0.31871712   0.00014985842   0.00048733331
       1825.7975      0.31968605   0.00015090738   0.00048884807
       1822.1840      0.32075034   0.00015213777   0.00049064592
       1818.5776      0.32181189   0.00015337840   0.00049245411
       1814.9784      0.32287717   0.00015462426   0.00049427198
       1811.3863      0.32394759   0.00015587915   0.00049607089
       1807.8014      0.32502805   0.00015714153   0.00049789005
       1804.2235      0.32600387   0.00015822733   0.00049942330
       1800.6527      0.32707654   0.00015950395   0.00050124496
       1797.0890      0.32814744   0.00016078829   0.00050306364
       1793.5323      0.32922202   0.00016207992   0.00050489468
       1789.9827      0.33029924   0.00016337935   0.00050671553
       1786.4400      0.33137874   0.00016468556   0.00050854660
       1782.9044      0.33245527   0.00016600013   0.00051038730
       1779.3758      0.33353967   0.00016732447   0.00051222459
       1775.8542      0.33462139   0.00016865346   0.00051406798
       1772.3396      0.33570031   0.00016999234   0.00051590085
       1768.8319      0.33678673   0.00017133962   0.00051775123
       1765.3311      0.33787119   0.00017269343   0.00051960192
       1761.8373      0.33895220   0.00017405778   0.00052145973
       1758.3504      0.34004612   0.00017542788   0.00052331150
       1754.8704      0.34113089   0.00017680572   0.00052516840
       1751.3972      0.34231987   0.00017839321   0.00052732133
       1747.9310      0.34341255   0.00017978657   0.00052919336
       1744.4716      0.34450326   0.00018119128   0.00053106238
       1741.0191      0.34560248   0.00018260527   0.00053292218
       1737.5734      0.34669622   0.00018402727   0.00053479971
       1734.1345      0.34779142   0.00018545336   0.00053667487
       1730.7024      0.34888943   0.00018689107   0.00053855186
       1727.2771      0.35008841   0.00018854671   0.00054073301
       1723.8586      0.35118594   0.00019000170   0.00054260551
       1720.4468      0.35228595   0.00019146434   0.00054450609
       1717.0419      0.35339769   0.00019293638   0.00054639314
       1713.6436      0.35459809   0.00019462993   0.00054859482
       1710.2521      0.35570045   0.00019612095   0.00055048335
       1706.8673      0.35680592   0.00019762280   0.00055237928
       1703.4891      0.35791439   0.00019912796   0.00055429367
       1700.1177      0.35913024   0.00020086254   0.00055649913
       1696.7529      0.36023756   0.00020238693   0.00055840542
       1693.3948      0.36134962   0.00020392370   0.00056031286
       1690.0434      0.36256067   0.00020568935   0.00056253439
       1686.6986      0.36366959   0.00020723826   0.00056444513
       1683.3604      0.36489174   0.00020902859   0.00056668091
       1680.0288      0.36600531   0.00021060072   0.00056859685
       1676.7038      0.36712291   0.00021218247   0.00057052434
       1673.3854      0.36833940   0.00021399870   0.00057277288
       1670.0735      0.36946477   0.00021559641   0.00057470219
       1666.7682      0.37068543   0.00021744019   0.00057693965
       1663.4695      0.37180417   0.00021905752   0.00057888605
       1660.1772      0.37303978   0.00022091926   0.00058113418
       1656.8915      0.37416008   0.00022256006   0.00058308726
       1653.6123      0.37539027   0.00022444536   0.00058533613
       1650.3396      0.37651431   0.00022610361   0.00058728860
       1647.0734      0.37775180   0.00022801077   0.00058955712
       1643.8136      0.37887735   0.00022968835   0.00059151142
       1640.5603      0.38011010   0.00023161829   0.00059379594
       1637.3134      0.38124344   0.00023331557   0.00059575192
       1634.0729      0.38247654   0.00023526919   0.00059802956
       1630.8389      0.38371395   0.00023723401   0.00060032245
       1627.6112      0.38485468   0.00023896407   0.00060229349
       1624.3900      0.38609114   0.00024095229   0.00060457254
       1621.1751      0.38733422   0.00024294875   0.00060687280
       1617.9665      0.38847558   0.00024470981   0.00060885261
       1614.7644      0.38971698   0.00024673274   0.00061115787
       1611.5685      0.39096216   0.00024876782   0.00061346264
       1608.3790      0.39221552   0.00025081987   0.00061577532
       1605.1958      0.39335489   0.00025262080   0.00061777674
       1602.0189      0.39461166   0.00025469373   0.00062008179
       1598.8483      0.39585960   0.00025677905   0.00062241391
       1595.6840      0.39710978   0.00025887607   0.00062473989
       1592.5259      0.39826091   0.00026072182   0.00062673895
       1589.3741      0.39951641   0.00026284500   0.00062907938
       1586.2285      0.40077773   0.00026498168   0.00063140333
       1583.0892      0.40203234   0.00026712653   0.00063374740
       1579.9560      0.40329492   0.00026928835   0.00063609067
       1576.8291      0.40455630   0.00027146153   0.00063844203
       1573.7083      0.40582169   0.00027365016   0.00064080190
       1570.5938      0.40708152   0.00027585046   0.00064314550
       1567.4853      0.40824516   0.00027778610   0.00064517495
       1564.3831      0.40950485   0.00028000952   0.00064755291
       1561.2870      0.41076635   0.00028225033   0.00064992149
       1558.1970      0.41204615   0.00028450185   0.00065228386
       1555.1131      0.41331177   0.00028676552   0.00065463975
       1552.0353      0.41458842   0.00028904403   0.00065702717
       1548.9636      0.41587111   0.00029134358   0.00065942047
       1545.8980      0.41713503   0.00029364722   0.00066180431
       1542.8385      0.41841737   0.00029596536   0.00066418741
       1539.7850      0.41979876   0.00029858790   0.00066690694
       1536.7376      0.42107968   0.00030094217   0.00066931232
       1533.6962      0.42235810   0.00030330488   0.00067172040
       1530.6608      0.42364101   0.00030568138   0.00067410424
       1527.6314      0.42492116   0.00030807328   0.00067652785
       1524.6080      0.42621078   0.00031048066   0.00067895295
       1521.5906      0.42748815   0.00031290088   0.00068135387
       1518.5792      0.42888567   0.00031563704   0.00068410919
       1515.5737      0.43017705   0.00031808704   0.00068653483
       1512.5742      0.43146773   0.00032054534   0.00068895627
       1509.5806      0.43276120   0.00032302051   0.00069140189
       1506.5929      0.43404898   0.00032551894   0.00069383212
       1503.6112      0.43545799   0.00032833993   0.00069661398
       1500.6353      0.43675136   0.00033086414   0.00069906473
       1497.6654      0.43808791   0.00033337996   0.00070121705
       1494.7013      0.43955547   0.00033622586   0.00070363390
       1491.7431      0.44091245   0.00033877901   0.00070571297
       1488.7907      0.44225825   0.00034134303   0.00070780351
       1485.8442      0.44373345   0.00034424109   0.00071022212
       1482.9035      0.44509221   0.00034683041   0.00071230686
       1479.9687      0.44645421   0.00034943926   0.00071440287
       1477.0396      0.44793001   0.00035238782   0.00071681986
       1474.1164      0.44929662   0.00035502823   0.00071890723
       1471.1989      0.45076945   0.00035801371   0.00072134157
       1468.2872      0.45213835   0.00036068451   0.00072343718
       1465.3813      0.45362307   0.00036370019   0.00072588030
       1462.4811      0.45500026   0.00036640337   0.00072798185
       1459.5866      0.45647942   0.00036946277   0.00073044036
       1456.6979      0.45785705   0.00037219550   0.00073253272
       1453.8149      0.45934874   0.00037528776   0.00073499812
       1450.9376      0.46073218   0.00037805344   0.00073709670
       1448.0660      0.46221584   0.00038117850   0.00073955285
       1445.2001      0.46370986   0.00038432948   0.00074200806
       1442.3399      0.46509942   0.00038714281   0.00074412844
       1439.4853      0.46659959   0.00039032917   0.00074659094
       1436.6364      0.46810376   0.00039353922   0.00074906174
       1433.7931      0.46948317   0.00039640442   0.00075118537
       1430.9554      0.47098988   0.00039964395   0.00075364833
       1428.1233      0.47249634   0.00040291144   0.00075612143
       1425.2969      0.47389850   0.00040582818   0.00075825694
       1422.4760      0.47540362   0.00040912444   0.00076074611
       1419.6608      0.47690737   0.00041244513   0.00076322008
       1416.8511      0.47842504   0.00041578943   0.00076571134
       1414.0469      0.47982807   0.00041877073   0.00076785630
       1411.2484      0.48134678   0.00042215477   0.00077033480
       1408.4553      0.48286462   0.00042554448   0.00077281951
       1405.6678      0.48438590   0.00042896871   0.00077531644
       1402.8858      0.48591515   0.00043240481   0.00077782721
       1400.1093      0.48743778   0.00043586693   0.00078031591
       1397.3383      0.48895303   0.00043935541   0.00078282634
       1394.5728      0.49037163   0.00044245835   0.00078498156
       1391.8127      0.49189563   0.00044598067   0.00078748950
       1389.0581      0.49343320   0.00044952093   0.00079000419
       1386.3090      0.49497065   0.00045308723   0.00079251914
       1383.5653      0.49650606   0.00045666560   0.00079502897
       1380.8271      0.49804397   0.00046027239   0.00079755358
       1378.0942      0.49958687   0.00046389873   0.00080007509
       1375.3668      0.50112906   0.00046755168   0.00080261490
       1372.6448      0.50267139   0.00047121426   0.00080513458
       1369.9281      0.50433224   0.00047532292   0.00080801663
       1367.2168      0.50588593   0.00047903639   0.00081055569
       1364.5109      0.50743380   0.00048277786   0.00081310042
       1361.8104      0.50897805   0.00048652760   0.00081563044
       1359.1152      0.51053596   0.00049030556   0.00081817335
       1356.4253      0.51209195   0.00049410749   0.00082071828
       1353.7408      0.51364496   0.00049793183   0.00082326835
       1351.0615      0.51532246   0.00050220498   0.00082617950
       1348.3876      0.51688538   0.00050608048   0.00082873199
       1345.7190      0.51844389   0.00050996931   0.00083129448
       1343.0556      0.52001129   0.00051388860   0.00083384705
       1340.3975      0.52169457   0.00051827071   0.00083677859
       1337.7447      0.52325994   0.00052223463   0.00083933696
       1335.0971      0.52483453   0.00052621267   0.00084190019
       1332.4548      0.52640312   0.00053022343   0.00084448186
       1329.8177      0.52809756   0.00053470551   0.00084741569
       1327.1858      0.52967491   0.00053876094   0.00084998885
       1324.5591      0.53136252   0.00054329586   0.00085293187
       1321.9376      0.53295204   0.00054740400   0.00085550827
       1319.3214      0.53453337   0.00055153296   0.00085811498
       1316.7102      0.53623237   0.00055614596   0.00086106205
       1314.1043      0.53781950   0.00056032138   0.00086364223
       1311.5035      0.53952119   0.00056499568   0.00086660422
       1308.9079      0.54111533   0.00056922248   0.00086921971
       1306.3174      0.54282348   0.00057395043   0.00087218521
       1303.7320      0.54442414   0.00057823179   0.00087477491
       1301.1517      0.54613499   0.00058301353   0.00087774966
       1298.5766      0.54785366   0.00058782186   0.00088073421
       1296.0065      0.54945179   0.00059217108   0.00088334072
       1293.4416      0.55117345   0.00059704137   0.00088632384
       1290.8817      0.55277157   0.00060144962   0.00088895027
       1288.3268      0.55450345   0.00060637311   0.00089194001
       1285.7771      0.55623097   0.00061132631   0.00089493610
       1283.2324      0.55783281   0.00061580593   0.00089755604
       1280.6927      0.55956446   0.00062081661   0.00090056557
       1278.1580      0.56130348   0.00062587251   0.00090356861
       1275.6284      0.56303673   0.00063094099   0.00090657894
       1273.1037      0.56465122   0.00063553368   0.00090921036
       1270.5841      0.56638512   0.00064066633   0.00091222752
       1268.0694      0.56813727   0.00064582544   0.00091525257
       1265.5597      0.56987883   0.00065102653   0.00091827539
       1263.0550      0.57162004   0.00065625442   0.00092131462
       1260.5553      0.57324353   0.00066097822   0.00092395780
       1258.0605      0.57499949   0.00066625813   0.00092698980
       1255.5706      0.57674815   0.00067157308   0.00093002181
       1253.0857      0.57851255   0.00067692902   0.00093308575
       1250.6056      0.58026378   0.00068231007   0.00093611499
       1248.1305      0.58201706   0.00068771850   0.00093916023
       1245.6603      0.58378656   0.00069317222   0.00094221040
       1243.1950      0.58554313   0.00069864740   0.00094527211
       1240.7345      0.58730531   0.00070415989   0.00094833119
       1238.2790      0.58898427   0.00070969424   0.00095149411
       1235.8282      0.59059822   0.00071526882   0.00095473556
       1233.3824      0.59222837   0.00072087823   0.00095796404
       1230.9413      0.59384298   0.00072651988   0.00096120339
       1228.5051      0.59546493   0.00073219177   0.00096445146
       1226.0738      0.59721698   0.00073847251   0.00096808741
       1223.6472      0.59883922   0.00074421556   0.00097134823
       1221.2255      0.60047284   0.00074999871   0.00097460635
       1218.8085      0.60209615   0.00075580034   0.00097786549
       1216.3963      0.60372737   0.00076165005   0.00098113779
       1213.9889      0.60548928   0.00076813028   0.00098478718
       1211.5862      0.60711676   0.00077402533   0.00098807980
       1209.1884      0.60875959   0.00077997670   0.00099136236
       1206.7952      0.61052425   0.00078658110   0.00099503572
       1204.4068      0.61215692   0.00079259559   0.00099832828
       1202.0231      0.61379580   0.00079865056    0.0010016204
       1199.6442      0.61556673   0.00080536577    0.0010053345
       1197.2699      0.61724307   0.00081150443    0.0010087160
       1194.9003      0.61890920   0.00081766528    0.0010120966
       1192.5355      0.62070092   0.00082449732    0.0010158923
       1190.1753      0.62238020   0.00083073745    0.0010192872
       1187.8198      0.62418797   0.00083764935    0.0010230836
       1185.4689      0.62585908   0.00084398699    0.0010264843
       1183.1227      0.62766646   0.00085097849    0.0010303047
       1180.7812      0.62935369   0.00085737931    0.0010337143
       1178.4442      0.63115302   0.00086445470    0.0010375334
       1176.1120      0.63283748   0.00087093078    0.0010409544
       1173.7843      0.63464264   0.00087807429    0.0010447887
       1171.4612      0.63646081   0.00088528709    0.0010486185
       1169.1427      0.63814200   0.00089188331    0.0010520749
       1166.8288      0.63996188   0.00089916345    0.0010559226
       1164.5195      0.64178505   0.00090650132    0.0010597778
       1162.2148      0.64347126   0.00091320005    0.0010632439
       1159.9146      0.64529546   0.00092061798    0.0010670995
       1157.6190      0.64711945   0.00092809287    0.0010709659
       1155.3279      0.64880988   0.00093491603    0.0010744480
       1153.0413      0.65063862   0.00094246669    0.0010783339
       1150.7593      0.65247346   0.00095007107    0.0010822109
       1148.4818      0.65429651   0.00095771049    0.0010861015
       1146.2088      0.65612454   0.00096541315    0.0010900091
       1143.9403      0.65796399   0.00097314151    0.0010939098
       1141.6763      0.65967029   0.00098022216    0.0010974328
       1139.4168      0.66150019   0.00098804724    0.0011013476
       1137.1617      0.66333823   0.00099590567    0.0011052701
       1134.9111      0.66518345    0.0010038386    0.0011092009
       1132.6650      0.66702504    0.0010117999    0.0011131394
       1130.4233      0.66885945    0.0010198216    0.0011170789
       1128.1860      0.67070488    0.0010278731    0.0011210249
       1125.9532      0.67255386    0.0010359796    0.0011249885
       1123.7248      0.67440694    0.0010441406    0.0011289453
       1121.5008      0.67626545    0.0010523358    0.0011329163
       1119.2812      0.67823166    0.0010613438    0.0011372987
       1117.0660      0.68008611    0.0010696541    0.0011412767
       1114.8552      0.68194566    0.0010780167    0.0011452536
       1112.6487      0.68379829    0.0010864122    0.0011492496
       1110.4466      0.68566470    0.0010948597    0.0011532558
       1108.2489      0.68752274    0.0011033614    0.0011572570
       1106.0556      0.68950168    0.0011127043    0.0011616754
       1103.8665      0.69137061    0.0011213159    0.0011657030
       1101.6818      0.69324031    0.0011299631    0.0011697348
       1099.5015      0.69523181    0.0011394643    0.0011741734
       1097.3254      0.69710357    0.0011482197    0.0011782117
       1095.1536      0.69897614    0.0011570200    0.0011822566
       1092.9862      0.70098047    0.0011667070    0.0011867154
